# f(Hz)	 Electron noise power spectrum density (V^2/Hz)
4.0876e+03 5.9471e-15
4.2686e+03 5.9520e-15
4.4575e+03 5.9575e-15
4.6549e+03 5.9637e-15
4.8610e+03 5.9705e-15
5.0762e+03 5.9781e-15
5.3009e+03 5.9867e-15
5.5356e+03 5.9962e-15
5.7807e+03 6.0070e-15
6.0367e+03 6.0191e-15
6.3039e+03 6.0328e-15
6.5830e+03 6.0483e-15
6.8745e+03 6.0660e-15
7.1788e+03 6.0862e-15
7.4967e+03 6.1095e-15
7.8286e+03 6.1363e-15
8.1752e+03 6.1675e-15
8.5371e+03 6.2039e-15
8.9151e+03 6.2467e-15
9.3098e+03 6.2975e-15
9.7220e+03 6.3584e-15
1.0152e+04 6.4322e-15
1.0602e+04 6.5228e-15
1.1071e+04 6.6359e-15
1.1561e+04 6.7799e-15
1.2073e+04 6.9680e-15
1.2608e+04 7.2218e-15
1.3166e+04 7.5797e-15
1.3749e+04 8.1153e-15
1.4358e+04 8.9899e-15
1.4993e+04 1.0625e-14
1.5657e+04 1.4496e-14
1.6350e+04 3.0001e-14
1.7074e+04 3.6447e-13
1.7830e+04 3.3189e-13
1.8620e+04 1.5640e-13
1.9444e+04 6.3283e-14
2.0305e+04 3.5892e-14
2.1204e+04 2.4659e-14
2.2143e+04 1.8456e-14
2.3123e+04 1.4411e-14
2.4147e+04 1.1531e-14
2.5216e+04 9.3810e-15
2.6332e+04 7.7278e-15
2.7498e+04 6.4304e-15
2.8715e+04 5.3961e-15
2.9987e+04 4.5607e-15
3.1314e+04 3.8783e-15
3.2701e+04 3.3154e-15
3.4148e+04 2.8469e-15
3.5660e+04 2.4541e-15
3.7239e+04 2.1224e-15
3.8888e+04 1.8406e-15
4.0610e+04 1.5999e-15
4.2408e+04 1.3933e-15
4.4285e+04 1.2154e-15
4.6246e+04 1.0616e-15
4.8293e+04 9.2825e-16
5.0431e+04 8.1239e-16
5.2664e+04 7.1153e-16
5.4996e+04 6.2357e-16
5.7431e+04 5.4677e-16
5.9973e+04 4.7963e-16
6.2629e+04 4.2089e-16
6.5401e+04 3.6944e-16
6.8297e+04 3.2436e-16
7.1321e+04 2.8484e-16
7.4478e+04 2.5017e-16
7.7776e+04 2.1974e-16
8.1219e+04 1.9303e-16
8.4815e+04 1.6957e-16
8.8570e+04 1.4897e-16
9.2492e+04 1.3087e-16
9.6587e+04 1.1497e-16
1.0086e+05 1.0101e-16
1.0533e+05 8.8738e-17
1.0999e+05 7.7958e-17
1.1486e+05 6.8489e-17
1.1995e+05 6.0170e-17
1.2526e+05 5.2862e-17
1.3080e+05 4.6442e-17
1.3659e+05 4.0803e-17
1.4264e+05 3.5850e-17
1.4896e+05 3.1498e-17
1.5555e+05 2.7676e-17
1.6244e+05 2.4317e-17
1.6963e+05 2.1367e-17
1.7714e+05 1.8776e-17
1.8498e+05 1.6499e-17
1.9317e+05 1.4498e-17
2.0173e+05 1.2740e-17
2.1066e+05 1.1196e-17
2.1998e+05 9.8382e-18
2.2972e+05 8.6455e-18
2.3989e+05 7.5974e-18
2.5051e+05 6.6763e-18
