# f(Hz)	 Electron noise power spectrum density (V^2/Hz)
4.0876e+03 1.8339e-14
4.2686e+03 1.8342e-14
4.4575e+03 1.8345e-14
4.6549e+03 1.8349e-14
4.8610e+03 1.8354e-14
5.0762e+03 1.8358e-14
5.3009e+03 1.8363e-14
5.5356e+03 1.8369e-14
5.7807e+03 1.8375e-14
6.0367e+03 1.8382e-14
6.3039e+03 1.8389e-14
6.5830e+03 1.8397e-14
6.8745e+03 1.8406e-14
7.1788e+03 1.8416e-14
7.4967e+03 1.8426e-14
7.8286e+03 1.8438e-14
8.1752e+03 1.8451e-14
8.5371e+03 1.8464e-14
8.9151e+03 1.8480e-14
9.3098e+03 1.8497e-14
9.7220e+03 1.8515e-14
1.0152e+04 1.8536e-14
1.0602e+04 1.8558e-14
1.1071e+04 1.8583e-14
1.1561e+04 1.8610e-14
1.2073e+04 1.8640e-14
1.2608e+04 1.8674e-14
1.3166e+04 1.8711e-14
1.3749e+04 1.8753e-14
1.4358e+04 1.8799e-14
1.4993e+04 1.8850e-14
1.5657e+04 1.8907e-14
1.6350e+04 1.8971e-14
1.7074e+04 1.9044e-14
1.7830e+04 1.9125e-14
1.8620e+04 1.9217e-14
1.9444e+04 1.9322e-14
2.0305e+04 1.9441e-14
2.1204e+04 1.9578e-14
2.2143e+04 1.9736e-14
2.3123e+04 1.9919e-14
2.4147e+04 2.0134e-14
2.5216e+04 2.0388e-14
2.6332e+04 2.0691e-14
2.7498e+04 2.1060e-14
2.8715e+04 2.1515e-14
2.9987e+04 2.2094e-14
3.1314e+04 2.2855e-14
3.2701e+04 2.3913e-14
3.4148e+04 2.5527e-14
3.5660e+04 2.8515e-14
3.7239e+04 2.2602e-13
3.8888e+04 1.8572e-13
4.0610e+04 1.4178e-13
4.2408e+04 9.7398e-14
4.4285e+04 7.2364e-14
4.6246e+04 5.7517e-14
4.8293e+04 4.7182e-14
5.0431e+04 3.9247e-14
5.2664e+04 3.2868e-14
5.4996e+04 2.7633e-14
5.7431e+04 2.3301e-14
5.9973e+04 1.9699e-14
6.2629e+04 1.6699e-14
6.5401e+04 1.4194e-14
6.8297e+04 1.2099e-14
7.1321e+04 1.0341e-14
7.4478e+04 8.8630e-15
7.7776e+04 7.6158e-15
8.1219e+04 6.5602e-15
8.4815e+04 5.6638e-15
8.8570e+04 4.9002e-15
9.2492e+04 4.2475e-15
9.6587e+04 3.6880e-15
1.0086e+05 3.2069e-15
1.0533e+05 2.7922e-15
1.0999e+05 2.4339e-15
1.1486e+05 2.1236e-15
1.1995e+05 1.8544e-15
1.2526e+05 1.6204e-15
1.3080e+05 1.4168e-15
1.3659e+05 1.2393e-15
1.4264e+05 1.0846e-15
1.4896e+05 9.4957e-16
1.5555e+05 8.3162e-16
1.6244e+05 7.2855e-16
1.6963e+05 6.3844e-16
1.7714e+05 5.5962e-16
1.8498e+05 4.9065e-16
1.9317e+05 4.3029e-16
2.0173e+05 3.7743e-16
2.1066e+05 3.3113e-16
2.1998e+05 2.9055e-16
2.2972e+05 2.5499e-16
2.3989e+05 2.2381e-16
2.5051e+05 1.9647e-16
