# f(Hz)	 Electron noise power spectrum density (V^2/Hz)
4.0876e+03 1.4126e-14
4.2686e+03 1.4132e-14
4.4575e+03 1.4138e-14
4.6549e+03 1.4145e-14
4.8610e+03 1.4153e-14
5.0762e+03 1.4161e-14
5.3009e+03 1.4171e-14
5.5356e+03 1.4181e-14
5.7807e+03 1.4192e-14
6.0367e+03 1.4204e-14
6.3039e+03 1.4218e-14
6.5830e+03 1.4233e-14
6.8745e+03 1.4249e-14
7.1788e+03 1.4267e-14
7.4967e+03 1.4287e-14
7.8286e+03 1.4309e-14
8.1752e+03 1.4334e-14
8.5371e+03 1.4361e-14
8.9151e+03 1.4391e-14
9.3098e+03 1.4424e-14
9.7220e+03 1.4461e-14
1.0152e+04 1.4503e-14
1.0602e+04 1.4549e-14
1.1071e+04 1.4602e-14
1.1561e+04 1.4660e-14
1.2073e+04 1.4727e-14
1.2608e+04 1.4802e-14
1.3166e+04 1.4888e-14
1.3749e+04 1.4985e-14
1.4358e+04 1.5098e-14
1.4993e+04 1.5228e-14
1.5657e+04 1.5380e-14
1.6350e+04 1.5558e-14
1.7074e+04 1.5770e-14
1.7830e+04 1.6025e-14
1.8620e+04 1.6337e-14
1.9444e+04 1.6727e-14
2.0305e+04 1.7227e-14
2.1204e+04 1.7894e-14
2.2143e+04 1.8834e-14
2.3123e+04 2.0283e-14
2.4147e+04 2.2917e-14
2.5216e+04 3.0245e-14
2.6332e+04 1.6151e-13
2.7498e+04 1.2984e-13
2.8715e+04 9.5020e-14
2.9987e+04 6.8870e-14
3.1314e+04 5.2933e-14
3.2701e+04 4.2563e-14
3.4148e+04 3.5086e-14
3.5660e+04 2.9301e-14
3.7239e+04 2.4647e-14
3.8888e+04 2.0823e-14
4.0610e+04 1.7648e-14
4.2408e+04 1.4995e-14
4.4285e+04 1.2772e-14
4.6246e+04 1.0904e-14
4.8293e+04 9.3306e-15
5.0431e+04 8.0028e-15
5.2664e+04 6.8795e-15
5.4996e+04 5.9269e-15
5.7431e+04 5.1170e-15
5.9973e+04 4.4264e-15
6.2629e+04 3.8360e-15
6.5401e+04 3.3299e-15
6.8297e+04 2.8950e-15
7.1321e+04 2.5202e-15
7.4478e+04 2.1966e-15
7.7776e+04 1.9165e-15
8.1219e+04 1.6736e-15
8.4815e+04 1.4626e-15
8.8570e+04 1.2790e-15
9.2492e+04 1.1190e-15
9.6587e+04 9.7953e-16
1.0086e+05 8.5775e-16
1.0533e+05 7.5135e-16
1.0999e+05 6.5835e-16
1.1486e+05 5.7701e-16
1.1995e+05 5.0584e-16
1.2526e+05 4.4355e-16
1.3080e+05 3.8901e-16
1.3659e+05 3.4124e-16
1.4264e+05 2.9940e-16
1.4896e+05 2.6273e-16
1.5555e+05 2.3059e-16
1.6244e+05 2.0242e-16
1.6963e+05 1.7770e-16
1.7714e+05 1.5603e-16
1.8498e+05 1.3701e-16
1.9317e+05 1.2032e-16
2.0173e+05 1.0567e-16
2.1066e+05 9.2810e-17
2.1998e+05 8.1520e-17
2.2972e+05 7.1606e-17
2.3989e+05 6.2901e-17
2.5051e+05 5.5255e-17
