# f(Hz)	 Electron noise power spectrum density (V^2/Hz)
4.0876e+03 1.4829e-14
4.2686e+03 1.4840e-14
4.4575e+03 1.4853e-14
4.6549e+03 1.4866e-14
4.8610e+03 1.4881e-14
5.0762e+03 1.4898e-14
5.3009e+03 1.4916e-14
5.5356e+03 1.4937e-14
5.7807e+03 1.4959e-14
6.0367e+03 1.4984e-14
6.3039e+03 1.5011e-14
6.5830e+03 1.5041e-14
6.8745e+03 1.5075e-14
7.1788e+03 1.5112e-14
7.4967e+03 1.5154e-14
7.8286e+03 1.5200e-14
8.1752e+03 1.5252e-14
8.5371e+03 1.5310e-14
8.9151e+03 1.5376e-14
9.3098e+03 1.5450e-14
9.7220e+03 1.5535e-14
1.0152e+04 1.5631e-14
1.0602e+04 1.5741e-14
1.1071e+04 1.5868e-14
1.1561e+04 1.6016e-14
1.2073e+04 1.6189e-14
1.2608e+04 1.6395e-14
1.3166e+04 1.6642e-14
1.3749e+04 1.6944e-14
1.4358e+04 1.7322e-14
1.4993e+04 1.7809e-14
1.5657e+04 1.8465e-14
1.6350e+04 1.9406e-14
1.7074e+04 2.0905e-14
1.7830e+04 2.3826e-14
1.8620e+04 1.7423e-13
1.9444e+04 1.0267e-13
2.0305e+04 8.4750e-14
2.1204e+04 6.6577e-14
2.2143e+04 5.2817e-14
2.3123e+04 4.3558e-14
2.4147e+04 3.6980e-14
2.5216e+04 3.1908e-14
2.6332e+04 2.7755e-14
2.7498e+04 2.4229e-14
2.8715e+04 2.1177e-14
2.9987e+04 1.8512e-14
3.1314e+04 1.6174e-14
3.2701e+04 1.4123e-14
3.4148e+04 1.2323e-14
3.5660e+04 1.0748e-14
3.7239e+04 9.3705e-15
3.8888e+04 8.1683e-15
4.0610e+04 7.1205e-15
4.2408e+04 6.2082e-15
4.4285e+04 5.4146e-15
4.6246e+04 4.7246e-15
4.8293e+04 4.1248e-15
5.0431e+04 3.6033e-15
5.2664e+04 3.1498e-15
5.4996e+04 2.7552e-15
5.7431e+04 2.4115e-15
5.9973e+04 2.1121e-15
6.2629e+04 1.8509e-15
6.5401e+04 1.6229e-15
6.8297e+04 1.4236e-15
7.1321e+04 1.2493e-15
7.4478e+04 1.0967e-15
7.7776e+04 9.6304e-16
8.1219e+04 8.4583e-16
8.4815e+04 7.4301e-16
8.8570e+04 6.5276e-16
9.2492e+04 5.7351e-16
9.6587e+04 5.0392e-16
1.0086e+05 4.4278e-16
1.0533e+05 3.8907e-16
1.0999e+05 3.4188e-16
1.1486e+05 3.0041e-16
1.1995e+05 2.6399e-16
1.2526e+05 2.3198e-16
1.3080e+05 2.0386e-16
1.3659e+05 1.7915e-16
1.4264e+05 1.5745e-16
1.4896e+05 1.3838e-16
1.5555e+05 1.2162e-16
1.6244e+05 1.0689e-16
1.6963e+05 9.3955e-17
1.7714e+05 8.2583e-17
1.8498e+05 7.2589e-17
1.9317e+05 6.3804e-17
2.0173e+05 5.6083e-17
2.1066e+05 4.9296e-17
2.1998e+05 4.3330e-17
2.2972e+05 3.8085e-17
2.3989e+05 3.3475e-17
2.5051e+05 2.9423e-17
