# f(Hz)	 Electron noise power spectrum density (V^2/Hz)
4.0876e+03 1.4346e-14
4.2686e+03 1.4357e-14
4.4575e+03 1.4369e-14
4.6549e+03 1.4382e-14
4.8610e+03 1.4397e-14
5.0762e+03 1.4413e-14
5.3009e+03 1.4431e-14
5.5356e+03 1.4451e-14
5.7807e+03 1.4472e-14
6.0367e+03 1.4496e-14
6.3039e+03 1.4523e-14
6.5830e+03 1.4552e-14
6.8745e+03 1.4584e-14
7.1788e+03 1.4620e-14
7.4967e+03 1.4661e-14
7.8286e+03 1.4705e-14
8.1752e+03 1.4755e-14
8.5371e+03 1.4811e-14
8.9151e+03 1.4874e-14
9.3098e+03 1.4945e-14
9.7220e+03 1.5025e-14
1.0152e+04 1.5116e-14
1.0602e+04 1.5220e-14
1.1071e+04 1.5339e-14
1.1561e+04 1.5476e-14
1.2073e+04 1.5634e-14
1.2608e+04 1.5819e-14
1.3166e+04 1.6038e-14
1.3749e+04 1.6298e-14
1.4358e+04 1.6613e-14
1.4993e+04 1.6999e-14
1.5657e+04 1.7485e-14
1.6350e+04 1.8113e-14
1.7074e+04 1.8956e-14
1.7830e+04 2.0156e-14
1.8620e+04 2.2026e-14
1.9444e+04 2.5471e-14
2.0305e+04 3.3174e-13
2.1204e+04 1.1900e-13
2.2143e+04 9.4430e-14
2.3123e+04 7.5418e-14
2.4147e+04 6.0532e-14
2.5216e+04 4.9617e-14
2.6332e+04 4.1469e-14
2.7498e+04 3.5113e-14
2.8715e+04 2.9963e-14
2.9987e+04 2.5683e-14
3.1314e+04 2.2071e-14
3.2701e+04 1.8997e-14
3.4148e+04 1.6369e-14
3.5660e+04 1.4117e-14
3.7239e+04 1.2184e-14
3.8888e+04 1.0526e-14
4.0610e+04 9.1017e-15
4.2408e+04 7.8782e-15
4.4285e+04 6.8266e-15
4.6246e+04 5.9220e-15
4.8293e+04 5.1431e-15
5.0431e+04 4.4718e-15
5.2664e+04 3.8923e-15
5.4996e+04 3.3916e-15
5.7431e+04 2.9582e-15
5.9973e+04 2.5826e-15
6.2629e+04 2.2565e-15
6.5401e+04 1.9732e-15
6.8297e+04 1.7265e-15
7.1321e+04 1.5116e-15
7.4478e+04 1.3241e-15
7.7776e+04 1.1603e-15
8.1219e+04 1.0172e-15
8.4815e+04 8.9194e-16
8.8570e+04 7.8233e-16
9.2492e+04 6.8634e-16
9.6587e+04 6.0223e-16
1.0086e+05 5.2852e-16
1.0533e+05 4.6389e-16
1.0999e+05 4.0722e-16
1.1486e+05 3.5752e-16
1.1995e+05 3.1392e-16
1.2526e+05 2.7567e-16
1.3080e+05 2.4210e-16
1.3659e+05 2.1265e-16
1.4264e+05 1.8679e-16
1.4896e+05 1.6410e-16
1.5555e+05 1.4417e-16
1.6244e+05 1.2667e-16
1.6963e+05 1.1129e-16
1.7714e+05 9.7793e-17
1.8498e+05 8.5933e-17
1.9317e+05 7.5513e-17
2.0173e+05 6.6358e-17
2.1066e+05 5.8313e-17
2.1998e+05 5.1245e-17
2.2972e+05 4.5033e-17
2.3989e+05 3.9574e-17
2.5051e+05 3.4778e-17
