# f(Hz)	 Electron noise power spectrum density (V^2/Hz)
4.0876e+03 1.4509e-14
4.2686e+03 1.4520e-14
4.4575e+03 1.4533e-14
4.6549e+03 1.4547e-14
4.8610e+03 1.4563e-14
5.0762e+03 1.4580e-14
5.3009e+03 1.4598e-14
5.5356e+03 1.4619e-14
5.7807e+03 1.4642e-14
6.0367e+03 1.4667e-14
6.3039e+03 1.4695e-14
6.5830e+03 1.4726e-14
6.8745e+03 1.4761e-14
7.1788e+03 1.4799e-14
7.4967e+03 1.4842e-14
7.8286e+03 1.4889e-14
8.1752e+03 1.4943e-14
8.5371e+03 1.5003e-14
8.9151e+03 1.5070e-14
9.3098e+03 1.5146e-14
9.7220e+03 1.5233e-14
1.0152e+04 1.5331e-14
1.0602e+04 1.5443e-14
1.1071e+04 1.5572e-14
1.1561e+04 1.5721e-14
1.2073e+04 1.5895e-14
1.2608e+04 1.6099e-14
1.3166e+04 1.6341e-14
1.3749e+04 1.6631e-14
1.4358e+04 1.6985e-14
1.4993e+04 1.7423e-14
1.5657e+04 1.7981e-14
1.6350e+04 1.8711e-14
1.7074e+04 1.9711e-14
1.7830e+04 2.1169e-14
1.8620e+04 2.3519e-14
1.9444e+04 2.8107e-14
2.0305e+04 1.5272e-13
2.1204e+04 1.0729e-13
2.2143e+04 8.8719e-14
2.3123e+04 7.2049e-14
2.4147e+04 5.8606e-14
2.5216e+04 4.8475e-14
2.6332e+04 4.0738e-14
2.7498e+04 3.4615e-14
2.8715e+04 2.9614e-14
2.9987e+04 2.5437e-14
3.1314e+04 2.1903e-14
3.2701e+04 1.8888e-14
3.4148e+04 1.6306e-14
3.5660e+04 1.4088e-14
3.7239e+04 1.2182e-14
3.8888e+04 1.0542e-14
4.0610e+04 9.1308e-15
4.2408e+04 7.9160e-15
4.4285e+04 6.8696e-15
4.6246e+04 5.9676e-15
4.8293e+04 5.1895e-15
5.0431e+04 4.5174e-15
5.2664e+04 3.9364e-15
5.4996e+04 3.4333e-15
5.7431e+04 2.9973e-15
5.9973e+04 2.6188e-15
6.2629e+04 2.2898e-15
6.5401e+04 2.0035e-15
6.8297e+04 1.7540e-15
7.1321e+04 1.5364e-15
7.4478e+04 1.3463e-15
7.7776e+04 1.1802e-15
8.1219e+04 1.0349e-15
8.4815e+04 9.0774e-16
8.8570e+04 7.9636e-16
9.2492e+04 6.9876e-16
9.6587e+04 6.1322e-16
1.0086e+05 5.3823e-16
1.0533e+05 4.7246e-16
1.0999e+05 4.1478e-16
1.1486e+05 3.6418e-16
1.1995e+05 3.1978e-16
1.2526e+05 2.8083e-16
1.3080e+05 2.4665e-16
1.3659e+05 2.1666e-16
1.4264e+05 1.9032e-16
1.4896e+05 1.6721e-16
1.5555e+05 1.4691e-16
1.6244e+05 1.2908e-16
1.6963e+05 1.1343e-16
1.7714e+05 9.9673e-17
1.8498e+05 8.7591e-17
1.9317e+05 7.6975e-17
2.0173e+05 6.7647e-17
2.1066e+05 5.9450e-17
2.1998e+05 5.2247e-17
2.2972e+05 4.5917e-17
2.3989e+05 4.0354e-17
2.5051e+05 3.5464e-17
